Height,u,tke,omega
0.0,0.0,0.31555864234840914,66.09814739226394
0.0002813263340389897,0.005560375314650824,0.316243834979026,65.66851292706481
0.0011253053361559588,0.022027195683015463,0.31826435156288274,64.41247978262612
0.002531937006350907,0.04878433281914489,0.3215204358340139,62.422565889760186
0.004501221344623835,0.08488743594547257,0.3258622710711321,59.83467913902451
0.007033158350974742,0.12916683800856044,0.3311096789316644,56.80673440460466
0.010127748025403628,0.18033823049312245,0.33707209816626904,53.49785081250404
0.013784990367910494,0.23710250079915032,0.3435651556053022,50.052316984692204
0.01800488537849534,0.298223237599264,0.35042204308249536,46.59004471909478
0.02278743305715817,0.3625781126724029,0.3574996450517112,43.203089188750376
0.028132633403898967,0.42918615226651374,0.36468041576159865,39.956630337708816
0.03404048641871774,0.49721600703988494,0.37187136398681453,36.89255442157753
0.04051099210161451,0.5659811268465865,0.37900140048959063,34.03408660753296
0.047544150452589265,0.6349271253652786,0.38601799726806174,31.39043575604139
0.05513996147164198,0.7036153962636348,0.3928837758370919,28.960887035691606
0.06329842515877267,0.7717057572902493,0.3995733697088843,26.738122729683592
0.07201954151398136,0.8389398180351025,0.40607071609000517,24.710760453882173
0.08130331053726803,0.9051259704825647,0.4123668143939862,22.86520226679891
0.09114973222863268,0.9701263694084138,0.418457925244031,21.186925166748196
0.10155880658807527,1.0338459451236521,0.42434415456759145,19.661343400311427
0.11253053361559587,1.0962233129237657,0.43002835885366886,18.274355985250377
0.12406491331119446,1.157223360750329,0.4355153099914697,17.012670593334587
0.13616194567487097,1.2168312713406235,0.4408110653833938,15.863973385426322
0.14882163070662552,1.2750477419739852,0.44592249784902854,14.816996015502955
0.16204396840645804,1.3318851875724769,0.45085694846447166,13.861516434529909
0.17582895877436855,1.387364741649813,0.45562197313051067,12.988319067943483
0.19017660181035706,1.4415138989810181,0.4602251600817582,12.189131824551302
0.20508689751442347,1.4943646711114291,0.4646740007530491,11.456551580690013
0.2205598458865679,1.545952149747777,0.4689758005443366,10.783965699731807
0.23659544692679033,1.5963133933762774,0.47313761924447517,10.16547432766872
0.25319370063509067,1.6454865692957223,0.4771662333594952,9.595816291072822
0.2703546070114691,1.6935102970115112,0.4810681144949789,9.070300146451402
0.28807816605592546,1.7404231500529528,0.4848494193929791,8.584741095210862
0.30636437776845976,1.7862632821897695,0.4885159883251483,8.13540394708193
0.3252132421490721,1.8310681511326259,0.4920733493772641,7.7189519890125755
0.3446247591977624,1.874874318451017,0.4955267267899113,7.332401427993603
0.3645989289145307,1.9177173089187791,0.4988810519948213,6.97308097800064
0.3851357512993768,1.9596315160399946,0.5021409763438385,6.638596121069805
0.4062352263523011,2.0006501433086354,0.50531088479627,6.3267975687160645
0.42789735407330326,2.040805172968172,0.5083949100321634,6.035753467888267
0.45012213446238347,2.0801273557857396,0.5113969466102488,5.7637249258057
0.47290956751954166,2.1186462167369036,0.514320664902295,5.509144464082247
0.49625965324477783,2.1563900725889362,0.5171695246198357,5.2705970505403705
0.5201723916380919,2.1933860582336826,0.5199467878116907,5.046803394605729
0.5446477826994839,2.229660159303795,0.5226555312568086,4.836605227728439
0.569685826428954,2.265237249146111,0.5252986582107128,4.6389523231396765
0.5952865228265021,2.300141128653178,0.5278789094883157,4.452891039092042
0.6214498718921282,2.3343945677919464,0.5303988738833776,4.27755419648689
0.6481758736258322,2.368019347935948,0.5328609979371752,4.1121521255615825
0.6754645280276143,2.4010363043186267,0.5352675950773452,3.9559647372849955
0.7033158350974742,2.4334653680923535,0.5376208541533625,3.808334493527308
0.7317297948354122,2.4653256076093073,0.5399228473984738,3.668660166182412
0.7607064072414282,2.496635268644016,0.5421755378496986,3.536391289479374
0.7902456723155219,2.527411813358741,0.5443807862581631,3.4110232219617176
0.8203475900576939,2.5576719578765648,0.5465403575218771,3.2920927452608235
0.8510121604679438,2.5874317083766782,0.5486559266723369,3.1791741360427075
0.8822393835462716,2.6167063956648264,0.5507290844452273,3.0718756555451017
0.9140292592926775,2.645510708201468,0.5527613424641373,2.9698364081031143
0.9463817877071613,2.6738587235927342,0.5547541380646909,2.8727235261263915
0.9792969687897232,2.7017639385662653,0.5567088387849114,2.7802296442609986
1.0127748025403627,2.7292392974665254,0.5586267465460317,2.6920706300515165
1.0468152889590805,2.7562972193133013,0.5605091015463669,2.607983542405659
1.0814184280458763,2.782949623473374,0.5623570858893189,2.5277247926351016
1.11658421980075,2.8092079539995645,0.5641718269650923,2.4510684858713625
1.1523126642237018,2.835083202693832,0.5659544006042813,2.3778049232944714
1.1886037613147313,2.8605859309523205,0.567705834020146,2.307739247916304
1.225457511073839,2.885726290450445,0.5694271085551406,2.240690218674498
1.2628739135010247,2.910514042725564,0.5711191622460703,2.1764890993552415
1.3008529685962884,2.934958577713678,0.5727828922211654,2.1149786504070973
1.33939467635963,2.9590689312950436,0.5744191569413315,2.0560122130620426
1.3784990367910497,2.9828538019017836,0.5760287782968976,1.9994528763688046
1.4181660498905473,3.0063215662385416,0.5776125435703037,1.9451727187887058
1.4583957156581229,3.0294802941650736,0.5791712072743671,1.8930521169240775
1.4991880340937758,3.052337762787444,0.5807054928750148,1.84297911475983
1.5405430051975073,3.074901469802253,0.5822160944066923,1.7948488475138407
1.5824606289693168,3.097178646136071,0.583703677988017,1.7485630148234128
1.6249409054092043,3.1191762679200465,0.5851688832446712,1.7040293985535737
1.6679838345171698,3.140901067837533,0.5866123246459879,1.6611614210074688
1.711589416293213,3.1623595458804314,0.5880345927611945,1.6198777397574249
1.7557576507373345,3.1835579795480147,0.5894362554408246,1.5801018757042038
1.8004885378495339,3.204502433519998,0.5908178589283909,1.5417618713175487
1.8457820776298113,3.2251987688338466,0.5921799289070353,1.5047899763184887
1.8916382700781667,3.2456526515945088,0.593522971485508,1.4691223583375683
1.9380571151946,3.265869561243137,0.5948474741275185,1.4346988363271682
1.9850386129791113,3.285854798409764,0.596153906528189,1.4014626347238213
2.0325827634317006,3.305613492373432,0.5974427214410782,1.3693601565509799
2.0806895665523677,3.3251506081518465,0.5987143554589826,1.338340773826683
2.129359022341113,3.3444709532413284,0.5999692297514931,1.3083566337963504
2.1785911307979355,3.363579184026576,0.6012077507620711,1.279362479650565
2.2283858919228368,3.382479811878572,0.6024303108672094,1.2513154845129701
2.278743305715816,3.401177208957894,0.6036372890000603,1.224175097595927
2.3296633721768734,3.41967561373963,0.604829051240748,1.1979029015227163
2.3811460913060083,3.437979136275129,0.6060059513754239,1.1724624799061114
2.4331914631032214,3.4560917632049324,0.6071683314259845,1.147819294355135
2.4857994875685128,3.474017362536335,0.6083165221522328,1.1239405701557605
2.538970164701882,3.491759688198276,0.6094508435281505,1.1007951899380357
2.5927034945033287,3.5093223843854457,0.6105716051938269,1.0783535947024028
2.6469994769728538,3.526708989702852,0.6116791068844922,1.0565876916324886
2.701858112110457,3.5439229411213913,0.6127736388380003,1.0354707681709756
2.757279399916138,3.5609675777543552,0.613855482182023,1.014977411879853
2.813263340389897,3.577846144464232,0.6149249093021296,0.995083435646858
2.8698099335317337,3.5945617953086204,0.6159821841918495,0.9757658078366974
2.926919179341649,3.611117596833553,0.617027562785746,0.9570025870190154
2.984591077819642,3.6275165312220436,0.6180612932764622,0.9387728609354372
3.042825628965713,3.6437614993052607,0.6190836164166372,0.9210566893956307
3.101622832779861,3.659855323443242,0.6200947658065352,0.903835050817466
3.1609826892620876,3.675800750281752,0.6210949681681768,0.8870897921492653
3.2209051984123924,3.6916004533914344,0.6220844436067104,0.8708035819330302
3.2813903602307755,3.7072570357951316,0.6230634058597201,0.854959866286595
3.3424381747172363,3.7227730323888673,0.6240320625351161,0.8395428276000763
3.4040486418717752,3.7381509122617143,0.6249906153382243,0.8245373457579063
3.466221761694392,3.753393080919453,0.6259392602886427,0.8099289617123007
3.5289575341850865,3.7685018824166976,0.6268781879274085,0.7957038432473357
3.592255959343859,3.7834796014018606,0.6278075835149795,0.7818487527850314
3.65611703717071,3.798328465079135,0.6287276272205079,0.7683510170960248
3.720540767665639,3.8130506450914123,0.6296384943028543,0.7551984987876869
3.785527150828645,3.8276482593278764,0.6305403552837635,0.7423795694519705
3.85107618665973,3.8421233736597813,0.6314333761136012,0.7298830843639338
3.9171878751588927,3.856478003607763,0.632317718330024,0.7176983586298447
3.9838622163261332,3.8707141159438407,0.6331935392099381,0.705815144691099
4.051099210161451,3.884833630231106,0.6340609919150777,0.6942236110969247
4.118898856664848,3.8988384203039357,0.634920225631517,0.682914322465052
4.187261155836322,3.912730315691431,0.6357713857034153,0.6718782205552609
4.256186107675876,3.926511102986622,0.6366146137612713,0.6611066063859802
4.325673712183505,3.9401825271638766,0.6374500478449523,0.6505911233290023
4.3957239693592145,3.953746292846809,0.6382778225217504,0.6403237411218565
4.466336879203,3.9672040655288576,0.6390980689996978,0.6302967407415557
4.537512441714865,3.9805574727486346,0.6399109152363684,0.6205027000872573
4.609250656894807,3.9938081052219907,0.6407164860433742,0.6109344804229484
4.681551524742827,4.006957517932683,0.6415149031867586,0.6015852135345399
4.754415045258925,4.020007231183423,0.6423062854834757,0.5924482895588096
4.827841218443101,4.032958731608994,0.6430907488941321,0.5835173454444542
4.901830044295356,4.045813473153051,0.6438684066121667,0.5747862540081231
4.976381522815688,4.05857287801014,0.6446393691496243,0.5662491135507406
5.051495654004099,4.071238337534384,0.6454037444196792,0.5579002380016679
5.127172437860587,4.083811213116232,0.646161637816052,0.5497341475603583
5.203411874385154,4.096292837028594,0.6469131522894579,0.5417455598070899
5.280213963577797,4.108684513243619,0.647658388421218,0.5339293812561797
5.35757870543852,4.120987518221311,0.6483974444941545,0.526280699326752
5.435506099967319,4.133203101671139,0.649130416560892,0.518794774707708
5.513996147164199,4.14533248728773,0.6498573985096724,0.5114670340949883
5.593048847029154,4.157376873461665,0.6505784821277936,0.5042930632805864
5.672664199562189,4.169337433966406,0.6512937571627704,0.4972686005740259
5.7528422047633,4.181215318622272,0.6520033113813156,0.490389530538198
5.8335828626324915,4.193011653938376,0.6527072306262321,0.48365187802255205
5.914886173169758,4.2047275437334015,0.6534055988713033,0.47705180247765805
5.996752136375103,4.216364069736018,0.6540984982742638,0.4705855925361158
6.079180752248528,4.227922292165743,0.6547860092279331,0.4642496608456833
6.162172020790029,4.239403250294986,0.655468210409581,0.4580405391413281
6.24572594199961,4.250807962993028,0.6561451788286055,0.45195487354368885
6.329842515877267,4.262137429252567,0.6568169898725811,0.4459894200721665
6.4145217424230045,4.273392628699548,0.6574837173517528,0.4401410403615436
6.499763621636817,4.284574522086868,0.6581454335420306,0.4344066975716761
6.58556815351871,4.295684051772573,0.6588022092265481,0.428783452480395
6.671935338068679,4.3067221421831166,0.6594541137358403,0.42326845975032373
6.7588651752867275,4.3176897002622425,0.6601012149866946,0.4178589643608362
6.846357665172852,4.328587615906003,0.6607435795197274,0.41255229819687966
6.934412807727058,4.339416762384437,0.6613812725357349,0.4073458767868463
7.023030602949338,4.350177996750381,0.6620143579308666,0.4022371961821133
7.112211050839699,4.360872160235877,0.6626428983306641,0.3972238299712768
7.2019541513981356,4.371500078636628,0.6632669551230114,0.3923034264224924
7.29225990462465,4.382062562684935,0.6638865884900355,0.38747370574768847
7.383128310519245,4.392560408411501,0.6645018574389975,0.38273245748276297
7.474559369081915,4.402994397496515,0.6651128198322128,0.37807753797818777
7.566553080312667,4.413365297610391,0.665719532416035,0.37350686799474514
7.659109444211493,4.4236738627445185,0.6663220508489387,0.36901843039940374
7.7522284607784,4.43392083353236,0.666920429728735,0.36461026795660284
7.845910130013382,4.444106937561266,0.6675147226189505,0.360280481210467
7.940154451916445,4.454232889675269,0.6681049820744,0.35602722645370377
8.034961426487584,4.464299392269226,0.6686912596659829,0.35184871377916305
8.130331053726803,4.474307135574559,0.6692736060047304,0.3477432052102404
8.226263333634098,4.484256797936894,0.6698520707651313,0.3437090129065073
8.32275826620947,4.494149046085879,0.67042670270776,0.33974449744113405
8.419815851452922,4.503984535397419,0.6709975497012328,0.33584806614684737
8.517436089364452,4.513763910148609,0.6715646587435178,0.33201817152732965
8.61561897994406,4.523487803765583,0.672128075982616,0.32825330973112204
8.714364523191742,4.533156839064527,0.6726878467366412,0.3245520190852423
8.813672719107508,4.542771628486073,0.6732440155133144,0.32091287868586404
8.913543567691347,4.552332774323284,0.6737966260288967,0.317334507043543
9.01397706894327,4.561840868943464,0.6743457212265788,0.31381556078058703
9.114973222863265,4.571296495003943,0.6748913432943425,0.3103547333783011
9.216532029451342,4.5807002256620954,0.675433533682318,0.3069507539719327
9.318653488707493,4.590052624779709,0.6759723331196476,0.30360238619126223
9.421337600631727,4.599354247121935,0.6765077816308772,0.30030842704487176
9.524584365224033,4.608605638550967,0.6770399185518889,0.29706770584622866
9.628393782484423,4.61780733621461,0.6775687825453904,0.29387908317980094
9.732765852412886,4.626959868729922,0.678094411615975,0.2907414499055154
9.837700575009432,4.636063756362054,0.6786168431247682,0.2876537261999397
9.943197950274051,4.645119511198458,0.679136113803673,0.2846148606326545
10.049257978206752,4.654127637318598,0.6796522597692266,0.28162382927634705
10.155880658807527,4.663088630959296,0.6801653165360818,0.27867963484922936
10.263065992076385,4.67200298067586,0.6806753190301246,0.27578130588844807
10.370813978013315,4.6808711674991095,0.681182301601241,0.2729278959532146
10.479124616618325,4.689693665088428,0.6816862980357419,0.2701184828564407
10.587997907891415,4.698470939880962,0.6821873415684582,0.2673521679237245
10.697433851832582,4.70720345123708,0.6826854648945169,0.2646280752785789
10.807432448441828,4.715891651582207,0.6831807001808073,0.2619453511528479
10.91799369771915,4.724535986545132,0.6836730790771472,0.2593031632213037
11.029117599664552,4.733136895092908,0.6841626327271583,0.25670069995946027
11.14080415427803,4.741694809662431,0.6846493917788605,0.2541371700236849
11.253053361559587,4.750210156288798,0.6851333863949925,0.2516118016527269
11.365865221509221,4.758683354730548,0.6856146462630682,0.24912384208982413
11.479239734126935,4.767114818591854,0.6860932006051762,0.24667255702458363
11.593176899412725,4.775504955441788,0.6865690781875302,0.24425723005386724
11.707676717366596,4.783854166930698,0.6870423073297782,0.24187716216094743
11.82273918798854,4.792162848903829,0.6875129159140783,0.23953167121223046
11.938364311278567,4.800431391512225,0.6879809313939453,0.23722009147087253
12.054552087236669,4.808660179321005,0.6884463808028792,0.2349417731266468
12.171302515862852,4.8168495914151,0.6889092907627781,0.23269608184144172
12.288615597157108,4.825000001502504,0.6893696874921437,0.2304823983098035
12.406491331119444,4.8331117780151,0.6898275968140865,0.22830011783395332
12.52492971774986,4.84118528420717,0.6902830441641329,0.22614864991274122
12.64393075704835,4.849220878251599,0.690736054597845,0.22402741784401448
12.763494449014923,4.857218913333878,0.6911866527982539,0.22193585833990453
12.88362079364957,4.865179737743948,0.6916348630831135,0.21987342115455577
13.004309790952298,4.873103694965943,0.6920807094119829,0.2178395687238374
13.125561440923102,4.880991123765898,0.6925242153931358,0.21583377581660226
13.247375743561985,4.888842358277471,0.6929654042903087,0.21385552919706988
13.369752698868945,4.896657728085736,0.6934042990292876,0.2119043272979323
13.492692306843985,4.904437558309086,0.6938409222043398,0.20997967990379418
13.616194567487101,4.912182169679325,0.6942752960844953,0.20808110784457742
13.740259480798297,4.919891878619962,0.694707442619681,0.206208142698532
13.864887046777568,4.927566997322783,0.6951373834467117,0.20436032650451288
13.990077265424919,4.935207833822726,0.6955651398951443,0.20253721148319265
14.115830136740346,4.942814692071119,0.6959907329929944,0.20073835976689577
14.242145660723851,4.9503878720073216,0.6964141834723239,0.19896334313775066
14.369023837375437,4.957927669628796,0.6968355117747,0.19721174277386874
14.496464666695099,4.965434377059663,0.6972547380565299,0.19548314900327082
14.62446814868284,4.972908282617788,0.6976718821942753,0.19377716106529164
14.753034283338657,4.9803496708804165,0.6980869637895484,0.19209338687920474
14.882163070662555,4.987758822748404,0.698500002174094,0.1904314428198189
15.011854510654528,4.995136015509085,0.6989110164146609,0.18879095349980773
15.14210860331458,5.002481522897803,0.699320025317763,0.18717155155854165
15.27292534864271,5.009795615158137,0.699727047434337,0.18557287745720344
15.40430474663892,5.017078559100875,0.7001321010642955,0.18399457927997245
15.536246797303205,5.024330618161726,0.7005352042609807,0.182436312541075
15.66875150063557,5.031552052457861,0.7009363748355214,0.18089773999750292
15.801818856636011,5.038743118843243,0.7013356303610935,0.17937853146721153
15.935448865304533,5.045904070962845,0.7017329881770893,0.17787836365261475
16.069641526641128,5.053035159305721,0.7021284653931956,0.17639691996920162
16.204396840645803,5.060136631257012,0.7025220788933854,0.17493389037910498
16.339714807318558,5.067208731148869,0.7029138453398218,0.17348897122946072
16.475595426659392,5.074251700310351,0.7033037811766818,0.17206186509539936
16.612038698668304,5.081265777116307,0.7036919026338952,0.17065228062752005
16.749044623345288,5.088251197035263,0.7040782257308069,0.1692599324037007
16.886613200690352,5.0952081926763615,0.7044627662797607,0.16788454078510487
17.024744430703503,5.102136993835344,0.7048455398896085,0.16652583177624944
17.163438313384724,5.109037827539619,0.7052265619691457,0.16518353688900356
17.30269484873402,5.115910918092445,0.7056058477304744,0.1638573930103924
17.442514036751398,5.122756487116221,0.7059834121922988,0.16254714227408557
17.582895877436858,5.129574753594931,0.7063592701831498,0.16125253193545264
17.72384037079039,5.1363659339157595,0.7067334363445452,0.15997331425007383
17.865347516812,5.143130241909876,0.7071059251340841,0.15870924635559644
18.007417315501687,5.1498678888924445,0.7074767508284788,0.15746009015683268
18.15004976685946,5.156579083701838,0.7078459275265244,0.15622561221399783
18.293244870885307,5.163264032738099,0.7082134691520079,0.15500558363399092
18.43700262757923,5.169922940000665,0.7085793894565598,0.1537997799646235
18.581323036941228,5.1765560071253605,0.7089437020224472,0.1526079810917059
18.726206098971307,5.183163433420683,0.7093064202653112,0.15142997113890314
18.87165181366947,5.189745415903401,0.7096675574368502,0.15026553837027543
19.0176601810357,5.196302149333468,0.7100271266274489,0.14911447509542197
19.164231201070013,5.202833826248282,0.7103851407687563,0.14797657757714774
19.311364873772405,5.209340636996306,0.7107416126362116,0.14685164594157854
19.45906119914288,5.215822769770029,0.7110965548515219,0.14573948409064913
19.607320177181425,5.222280410638349,0.7114499798850903,0.14463989961689408
19.75614180788805,5.228713743578319,0.7118019000583965,0.1435527037204713
