Height,u,tke,omega
0.0,0.0,0.670505654313906,3.5715418108681933
0.0002813263340389897,0.0003014092694047141,0.670505654313906,3.5710356622160293
0.0011253053361559588,0.0012053808550478125,0.670505654313906,3.5695180766529493
0.002531937006350907,0.0027111468148027485,0.670505654313906,3.566991631705347
0.004501221344623835,0.004817429659443154,0.670505654313906,3.563460611100049
0.007033158350974742,0.007522445959072835,0.670505654313906,3.5589309866394547
0.010127748025403628,0.01082391136219574,0.670505654313906,3.5534103930272574
0.013784990367910494,0.014719046997854352,0.670505654313906,3.5469080958421526
0.01800488537849534,0.019204587223338787,0.670505654313906,3.5394349529091462
0.02278743305715817,0.024276788672396982,0.670505654313906,3.5310033693670113
0.028132633403898967,0.029931440551780986,0.670505654313906,3.5216272467758336
0.03404048641871774,0.03616387612733624,0.670505654313906,3.511321926649692
0.04051099210161451,0.042968985334844514,0.670505654313906,3.5001041288360355
0.047544150452589265,0.050341228445361985,0.670505654313906,3.487991885194904
0.05513996147164198,0.058274650710097124,0.670505654313906,3.475004469057367
0.06329842515877267,0.06676289790573268,0.670505654313906,3.4611623209635156
0.07201954151398136,0.07579923269779708,0.670505654313906,3.446486971195626
0.08130331053726803,0.0853765517369936,0.670505654313906,3.4310009596320032
0.09114973222863268,0.09548740340153018,0.670505654313906,3.414727753451346
0.10155880658807527,0.10612400609723958,0.670505654313906,3.3976916632166096
0.11253053361559587,0.11727826702684459,0.670505654313906,3.3799177578613024
0.12406491331119446,0.12894180133985625,0.670505654313906,3.361431779090404
0.13616194567487097,0.1411059515754665,0.670505654313906,3.342260055692883
0.14882163070662552,0.15376180731224134,0.670505654313906,3.322429418243495
0.16204396840645804,0.16690022494044882,0.670505654313906,3.3019671146486775
0.17582895877436855,0.18051184747541507,0.670505654313906,3.2809007269653083
0.19017660181035706,0.19458712433334657,0.670505654313906,3.25925808989233
0.20508689751442347,0.20911633099450974,0.670505654313906,3.2370672113043266
0.2205598458865679,0.2240895884824997,0.670505654313906,3.2143561951634574
0.23659544692679033,0.23949688259248758,0.670505654313906,3.191153167112233
0.25319370063509067,0.2553280828057284,0.670505654313906,3.167486203014969
0.2703546070114691,0.2715729608322587,0.670505654313906,3.1433832606806686
0.28807816605592546,0.2882212087284488,0.670505654313906,3.1188721149651744
0.30636437776845976,0.3052624565409736,0.670505654313906,3.093980296415889
0.3252132421490721,0.32268628943366207,0.670505654313906,3.0687350335886787
0.3446247591977624,0.34048226425863165,0.670505654313906,3.0431631991339665
0.3645989289145307,0.35863992553797464,0.670505654313906,3.017291259717799
0.3851357512993768,0.3771488208270992,0.670505654313906,2.9911452298140655
0.4062352263523011,0.39599851543550374,0.670505654313906,2.964750629376199
0.42789735407330326,0.41517860648531196,0.670505654313906,2.938132445370865
0.45012213446238347,0.43467873629229964,0.670505654313906,2.911315097132249
0.47290956751954166,0.45448860505828415,0.670505654313906,2.8843224054739465
0.49625965324477783,0.47459798286776467,0.670505654313906,2.857177565475871
0.5201723916380919,0.4949967209853953,0.670505654313906,2.8299031228463276
0.5446477826994839,0.5156747624543923,0.670505654313906,2.802520953744203
0.569685826428954,0.5366221519992137,0.670505654313906,2.775052247933206
0.5952865228265021,0.5578290452388339,0.670505654313906,2.7475174951291508
0.6214498718921282,0.5792857172196682,0.670505654313906,2.719936474392251
0.6481758736258322,0.6009825702796634,0.670505654313906,2.6923282464093643
0.6754645280276143,0.6229101412573017,0.670505654313906,2.664711148505775
0.7033158350974742,0.6450591080612061,0.670505654313906,2.6371027922224815
0.7317297948354122,0.6674202956177774,0.670505654313906,2.6095200632928512
0.7607064072414282,0.6899846812157636,0.670505654313906,2.581979123851802
0.7902456723155219,0.7127433992679272,0.670505654313906,2.5544954167112723
0.8203475900576939,0.7356877455110248,0.670505654313906,2.527083671537446
0.8510121604679438,0.758809180666143,0.670505654313906,2.499757912767997
0.8822393835462716,0.7820993335821117,0.670505654313906,2.4725314691112055
0.9140292592926775,0.8055500038851563,0.670505654313906,2.445416984473266
0.9463817877071613,0.8291531641582929,0.670505654313906,2.4184264301651477
0.9792969687897232,0.8529009616741123,0.670505654313906,2.3915711182459782
1.0127748025403627,0.8767857197046163,0.670505654313906,2.3648617158660032
1.0468152889590805,0.9007999384316822,0.670505654313906,2.3383082604785335
1.0814184280458763,0.924936295481491,0.670505654313906,2.3119201757969754
1.11658421980075,0.9491876461059612,0.670505654313906,2.285706288379847
1.1523126642237018,0.9735470230337914,0.670505654313906,2.2596748447336212
1.1886037613147313,0.9980076360132725,0.670505654313906,2.233833528830187
1.225457511073839,1.0225628710684274,0.670505654313906,2.2081894799426642
1.2628739135010247,1.0472062894894734,0.670505654313906,2.182749310710169
1.3008529685962884,1.0719316265779097,0.670505654313906,2.1575191253488626
1.33939467635963,1.0967327901658634,0.670505654313906,2.132504537933204
1.3784990367910497,1.1216038589285728,0.670505654313906,2.107710690677713
1.4181660498905473,1.1465390805081643,0.670505654313906,2.083142272155733
1.4583957156581229,1.1715328694660854,0.670505654313906,2.0588035353975997
1.4991880340937758,1.1965798050807956,0.670505654313906,2.0346983158163283
1.5405430051975073,1.2216746290065286,0.670505654313906,2.0108300489143063
1.5824606289693168,1.24681224280814,0.670505654313906,1.9872017877296528
1.6249409054092043,1.2719877053863136,0.670505654313906,1.963816219985707
1.6679838345171698,1.2971962303065743,0.670505654313906,1.9406756849117193
1.711589416293213,1.322433183044848,0.670505654313906,1.91778218970707
1.7557576507373345,1.3476940781615323,0.670505654313906,1.8951374256253406
1.8004885378495339,1.3729745764153165,0.670505654313906,1.8727427836583086
1.8457820776298113,1.3982704818272997,0.670505654313906,1.8505993698033447
1.8916382700781667,1.423577738705243,0.670505654313906,1.8287080199009205
1.9380571151946,1.448892428637151,0.670505654313906,1.8070693140318432
1.9850386129791113,1.4742107674627114,0.670505654313906,1.7856835904665291
2.0325827634317006,1.4995291022305324,0.670505654313906,1.7645509591610786
2.0806895665523677,1.5248439081485012,0.670505654313906,1.743671314797156
2.129359022341113,1.5501517855340299,0.670505654313906,1.7230443493646874
2.1785911307979355,1.57544945677043,0.670505654313906,1.7026695642882106
2.2283858919228368,1.6007337632751053,0.670505654313906,1.6825462820993493
2.278743305715816,1.6260016624848033,0.670505654313906,1.6626736576593268
2.3296633721768734,1.651250224862677,0.670505654313906,1.6430506889367247
2.3811460913060083,1.6764766309314696,0.670505654313906,1.623676227346832
2.4331914631032214,1.7016781683367417,0.670505654313906,1.6045489876599075
2.4857994875685128,1.7268522289436319,0.670505654313906,1.585667557486539
2.538970164701882,1.7519963059703159,0.670505654313906,1.5670304063490172
2.5927034945033287,1.7771079911609506,0.670505654313906,1.5486358943482532
2.6469994769728538,1.8021849720005831,0.670505654313906,1.530482280436288
2.701858112110457,1.8272250289741914,0.670505654313906,1.5125677303048657
2.757279399916138,1.8522260328717528,0.670505654313906,1.4948903239008562
2.813263340389897,1.8771859421409616,0.670505654313906,1.4774480625795898
2.8698099335317337,1.902102800288971,0.670505654313906,1.460238875907329
2.926919179341649,1.9269747333343215,0.670505654313906,1.443260628124227
2.984591077819642,1.951799947309988,0.670505654313906,1.4265111242791801
3.042825628965713,1.9765767258182967,0.670505654313906,1.4099881160479875
3.101622832779861,2.0013034276382773,0.670505654313906,1.393689307246196
3.1609826892620876,2.02597848438585,0.670505654313906,1.3776123590479161
3.2209051984123924,2.050600398227091,0.670505654313906,1.3617548949218024
3.2813903602307755,2.0751677396447046,0.670505654313906,1.3461145052952106
3.3424381747172363,2.0996791452576558,0.670505654313906,1.330688751957404
3.4040486418717752,2.1241333156938573,0.670505654313906,1.3154751722124565
3.466221761694392,2.14852901351565,0.670505654313906,1.300471282792297
3.5289575341850865,2.172865061197761,0.670505654313906,1.285674583540096
3.592255959343859,2.197140339157303,0.670505654313906,1.271082560873955
3.65611703717071,2.2213537838353297,0.670505654313906,1.256692691040587
3.720540767665639,2.245504385829375,0.670505654313906,1.2425024431684197
3.785527150828645,2.269591188076351,0.670505654313906,1.2285092821292722
3.85107618665973,2.293613284085117,0.670505654313906,1.2147106712174651
3.9171878751588927,2.317569816218001,0.670505654313906,1.2011040746549648
3.9838622163261332,2.341459974020485,0.670505654313906,1.1876869599308488
4.051099210161451,2.3652829925982664,0.670505654313906,1.174456799983114
4.118898856664848,2.389038151040838,0.670505654313906,1.161411075230554
4.187261155836322,2.412724770890732,0.670505654313906,1.1485472754621595
4.256186107675876,2.436342214657546,0.670505654313906,1.135862901591198
4.325673712183505,2.4598898843758286,0.670505654313906,1.1233554672808799
4.3957239693592145,2.483367220205933,0.670505654313906,1.1110225004482168
4.466336879203,2.5067736990768825,0.670505654313906,1.0988615446524421
4.537512441714865,2.5301088333703428,0.670505654313906,1.0868701603740725
4.609250656894807,2.553372169644723,0.670505654313906,1.075045926190466
4.681551524742827,2.5765632873985114,0.670505654313906,1.063386439853452
4.754415045258925,2.599681797871857,0.670505654313906,1.0518893192743997
4.827841218443101,2.6227273428854962,0.670505654313906,1.0405522034218218
4.901830044295356,2.6456995937160697,0.670505654313906,1.0293727531364187
4.976381522815688,2.668598250006907,0.670505654313906,1.0183486518682152
5.051495654004099,2.6914230387133675,0.670505654313906,1.0074776063402495
5.127172437860587,2.7141737130818138,0.670505654313906,0.9967573471430612
5.203411874385154,2.7368500516613357,0.670505654313906,0.9861856292640185
5.280213963577797,2.7594518573473157,0.670505654313906,0.9757602325553502
5.35757870543852,2.781978956455985,0.670505654313906,0.965478962144539
5.435506099967319,2.804431197829085,0.670505654313906,0.955339648790581
5.513996147164199,2.8268084519678083,0.670505654313906,0.9453401491894188
5.593048847029154,2.8491106101951638,0.670505654313906,0.9354783462317151
5.672664199562189,2.8713375838459774,0.670505654313906,0.925752149215956
5.7528422047633,2.8934893034836926,0.670505654313906,0.9161594940197348
5.8335828626324915,2.915565718143219,0.670505654313906,0.9066983432319156
5.914886173169758,2.9375667945990283,0.670505654313906,0.8973666862482408
5.996752136375103,2.9594925166577757,0.670505654313906,0.8881625393328084
6.079180752248528,2.9813428844746848,0.670505654313906,0.8790839456477239
6.162172020790029,3.00311791389299,0.670505654313906,0.8701289752531061
6.24572594199961,3.0248176358057384,0.670505654313906,0.8612957250795095
6.329842515877267,3.046442095539249,0.670505654313906,0.85258231887472
6.4145217424230045,3.0679913522575846,0.670505654313906,0.8439869071267674
6.499763621636817,3.089465478387355,0.670505654313906,0.8355076669649035
6.58556815351871,3.110864559062252,0.670505654313906,0.8271428020401962
6.671935338068679,3.132188691586663,0.670505654313906,0.8188905423872983
6.7588651752867275,3.1534379849177836,0.670505654313906,0.8107491442688604
6.846357665172852,3.1746125591656376,0.670505654313906,0.8027168900039807
6.934412807727058,3.1957125451104322,0.670505654313906,0.7947920877819954
7.023030602949338,3.216738083736691,0.670505654313906,0.7869730714628511
7.112211050839699,3.2376893257836348,0.670505654313906,0.7792582003652131
7.2019541513981356,3.2585664313112797,0.670505654313906,0.7716458590434161
7.29225990462465,3.279369569281749,0.670505654313906,0.7641344570542747
7.383128310519245,3.3000989171552946,0.670505654313906,0.7567224287147352
7.474559369081915,3.3207546605005653,0.670505654313906,0.7494082328512727
7.566553080312667,3.3413369926186367,0.670505654313906,0.7421903525418899
7.659109444211493,3.3618461141803677,0.670505654313906,0.735067294851528
7.7522284607784,3.3822822328766375,0.670505654313906,0.7280375905616339
7.845910130013382,3.402645563081037,0.670505654313906,0.721099793894601
7.940154451916445,3.422936325524609,0.670505654313906,0.7142524822337396
8.034961426487584,3.443154746982225,0.670505654313906,0.707494255839403
8.130331053726803,3.463301059970232,0.670505654313906,0.7008237375618442
8.226263333634098,3.4833755024549693,0.670505654313906,0.6942395725513544
8.32275826620947,3.503378317571817,0.670505654313906,0.6877404279661816
8.419815851452922,3.5233097533543956,0.670505654313906,0.681324992678713
8.517436089364452,3.5431700624736058,0.670505654313906,0.6749919769803535
8.61561897994406,3.5629595019861546,0.670505654313906,0.66874011228552
8.714364523191742,3.5826783330922587,0.670505654313906,0.66256815083513
8.813672719107508,3.6023268209022192,0.670505654313906,0.656474865399941
8.913543567691347,3.6219052342115465,0.670505654313906,0.6504590489840766
9.01397706894327,3.6414138452843785,0.670505654313906,0.6445195145290376
9.114973222863265,3.660852929644881,0.670505654313906,0.6386550946184925
9.216532029451342,3.6802227658763793,0.670505654313906,0.6328646411841009
9.318653488707493,3.699523635427942,0.670505654313906,0.6271470252126214
9.421337600631727,3.7187558224281774,0.670505654313906,0.6215011364545209
9.524584365224033,3.7379196135059827,0.670505654313906,0.615925883134296
9.628393782484423,3.757015297618022,0.670505654313906,0.610420191662694
9.732765852412886,3.7760431658826876,0.670505654313906,0.6049830063510092
9.837700575009432,3.79500351142034,0.670505654313906,0.5996132891276087
9.943197950274051,3.81389662919959,0.670505654313906,0.5943100192568391
10.049257978206752,3.8327228158894346,0.670505654313906,0.5890721930604383
10.155880658807527,3.851482369717037,0.670505654313906,0.5838988236415799
10.263065992076385,3.870175590330947,0.670505654313906,0.5787889406116493
10.370813978013315,3.8888027786695964,0.670505654313906,0.5737415898198569
10.479124616618325,3.907364236834863,0.670505654313906,0.5687558330857672
10.587997907891415,3.9258602679705468,0.670505654313906,0.563830747934827
10.697433851832582,3.9442911761455686,0.670505654313906,0.5589654273369584
10.807432448441828,3.962657266241756,0.670505654313906,0.554158979448275
10.91799369771915,3.980958843846025,0.670505654313906,0.5494105273559767
11.029117599664552,3.9991962151468305,0.670505654313906,0.5447192088264642
11.14080415427803,4.017369686834717,0.670505654313906,0.5400841760567135
11.253053361559587,4.035479566006844,0.670505654313906,0.5355045954289412
11.365865221509221,4.053526160075337,0.670505654313906,0.5309796472685843
11.479239734126935,4.071509776679333,0.670505654313906,0.5265085256056169
11.593176899412725,4.089430723600594,0.670505654313906,0.5220904379392173
11.707676717366596,4.107289308682552,0.670505654313906,0.5177246050057942
11.82273918798854,4.125085839752692,0.670505654313906,0.5134102605503805
11.938364311278567,4.142820624548117,0.670505654313906,0.5091466511013916
12.054552087236669,4.160493970644225,0.670505654313906,0.5049330357487498
12.171302515862852,4.178106185386361,0.670505654313906,0.5007686859253653
12.288615597157108,4.195657575824329,0.670505654313906,0.496652885191967
12.406491331119444,4.213148448649715,0.670505654313906,0.4925849290252678
12.52492971774986,4.230579110135862,0.670505654313906,0.48856412460945126
12.64393075704835,4.247949866080433,0.670505654313906,0.48458979063096064
12.763494449014923,4.265261021750477,0.670505654313906,0.48066125707656954
12.88362079364957,4.282512881829882,0.670505654313906,0.47677786503471314
13.004309790952298,4.299705750369168,0.670505654313906,0.4729389665000534
13.125561440923102,4.316839930737492,0.670505654313906,0.46914392418125406
13.247375743561985,4.333915725576836,0.670505654313906,0.465392111311935
13.369752698868945,4.350933436758249,0.670505654313906,0.4616829114647789
13.492692306843985,4.367893365340112,0.670505654313906,0.4580157183687578
13.616194567487101,4.3847958115283365,0.670505654313906,0.4543899357294475
13.740259480798297,4.401641074638414,0.670505654313906,0.45080497705239725
13.864887046777568,4.418429453059283,0.670505654313906,0.44726026546951986
13.990077265424919,4.435161244218914,0.670505654313906,0.4437552335684678
14.115830136740346,4.45183674455157,0.670505654313906,0.4402893232249589
14.242145660723851,4.468456249466681,0.670505654313906,0.43686198543801535
14.369023837375437,4.485020053319273,0.670505654313906,0.4334726801680791
14.496464666695099,4.501528449381881,0.670505654313906,0.4301208761779663
14.62446814868284,4.51798172981792,0.670505654313906,0.4268060508766212
14.753034283338657,4.5343801856564365,0.670505654313906,0.42352769016563463
14.882163070662555,4.550724106768205,0.670505654313906,0.42028528828848377
15.011854510654528,4.567013781843107,0.670505654313906,0.4170783476824589
15.14210860331458,4.583249498368761,0.670505654313906,0.41390637883323533
15.27292534864271,4.599431542610349,0.670505654313906,0.410768900132053
15.40430474663892,4.615560199591593,0.670505654313906,0.40766543773546315
15.536246797303205,4.631635753076848,0.670505654313906,0.404595525427605
15.66875150063557,4.647658485554263,0.670505654313906,0.40155870448497155
15.801818856636011,4.663628678219969,0.670505654313906,0.39855452354362725
15.935448865304533,4.6795466109632695,0.670505654313906,0.3955825384688369
16.069641526641128,4.695412562352772,0.670505654313906,0.3926423122270695
16.204396840645803,4.711226809623459,0.670505654313906,0.38973341476033607
16.339714807318558,4.726989628664623,0.670505654313906,0.38685542286282537
16.475595426659392,4.742701294008674,0.670505654313906,0.38400792005979856
16.612038698668304,4.758362078820748,0.670505654313906,0.38119049648870557
16.749044623345288,4.773972254889122,0.670505654313906,0.37840274878248514
16.886613200690352,4.789532092616376,0.670505654313906,0.3756442799550121
17.024744430703503,4.805041861011297,0.670505654313906,0.3729146992886556
17.163438313384724,4.820501827681468,0.670505654313906,0.37021362222391185
17.30269484873402,4.835912258826554,0.670505654313906,0.3675406702510728
17.442514036751398,4.851273419232223,0.670505654313906,0.36489547080390045
17.582895877436858,4.866585572264693,0.670505654313906,0.3622776571552667
17.72384037079039,4.881848979865886,0.670505654313906,0.359686868314727
17.865347516812,4.897063902549154,0.670505654313906,0.3571227489279911
18.007417315501687,4.912230599395559,0.670505654313906,0.35458494917826
18.15004976685946,4.92734932805069,0.670505654313906,0.35207312468939217
18.293244870885307,4.9424203447219845,0.670505654313906,0.3495869364308702
18.43700262757923,4.957443904176547,0.670505654313906,0.34712605062452967
18.581323036941228,4.972420259739435,0.670505654313906,0.3446901386530247
18.726206098971307,4.987349663292405,0.670505654313906,0.3422788769699925
18.87165181366947,5.002232365273085,0.670505654313906,0.3398919470118898
19.0176601810357,5.01706861467456,0.670505654313906,0.3375290351114693
19.164231201070013,5.031858659045376,0.670505654313906,0.335189832412864
19.311364873772405,5.046602744489904,0.670505654313906,0.3328740347882522
19.45906119914288,5.061301115669089,0.670505654313906,0.33058134275607315
19.607320177181425,5.075954015801537,0.670505654313906,0.32831146140076295
19.75614180788805,5.090561686664959,0.670505654313906,0.32606410029398336
19.90552609126275,5.105124368597911,0.670505654313906,0.3238389734173168
20.05547302730554,5.11964230050187,0.670505654313906,0.32163579908639706
20.205982616016396,5.134115719843588,0.670505654313906,0.3194542998764515
