Height,u,tke,omega
0.0,0.0,1.38807857815901,3.5715418108681933
0.0002813263340389897,0.22584198799968186,1.38807857815901,3.5710356622160293
0.0011253053361559588,0.3283680438085208,1.38807857815901,3.5695180766529493
0.002531937006350907,0.4087428470465478,1.38807857815901,3.566991631705347
0.004501221344623835,0.4774381112638211,1.38807857815901,3.563460611100049
0.007033158350974742,0.5385778526493078,1.38807857815901,3.5589309866394547
0.010127748025403628,0.5943008662569398,1.38807857815901,3.5534103930272574
0.013784990367910494,0.6458886154983841,1.38807857815901,3.5469080958421526
0.01800488537849534,0.6941818924989125,1.38807857815901,3.5394349529091462
0.02278743305715817,0.7397681737195517,1.38807857815901,3.5310033693670113
0.028132633403898967,0.7830773961894815,1.38807857815901,3.5216272467758336
0.03404048641871774,0.8244356023937592,1.38807857815901,3.511321926649692
0.04051099210161451,0.8640971265572439,1.38807857815901,3.5001041288360355
0.047544150452589265,0.9022649739587142,1.38807857815901,3.487991885194904
0.05513996147164198,0.9391042961847156,1.38807857815901,3.475004469057367
0.06329842515877267,0.9747516252310189,1.38807857815901,3.4611623209635156
0.07201954151398136,1.0093213937148209,1.38807857815901,3.446486971195626
0.08130331053726803,1.0429106577211726,1.38807857815901,3.4310009596320032
0.09114973222863268,1.0756025937764655,1.38807857815901,3.414727753451346
0.10155880658807527,1.1074691382013415,1.38807857815901,3.3976916632166096
0.11253053361559587,1.1385730129942544,1.38807857815901,3.3799177578613024
0.12406491331119446,1.1689693042116438,1.38807857815901,3.361431779090404
0.13616194567487097,1.1987067081809408,1.38807857815901,3.342260055692883
0.14882163070662552,1.2278285272890366,1.38807857815901,3.322429418243495
0.16204396840645804,1.256373474309683,1.38807857815901,3.3019671146486775
0.17582895877436855,1.2843763284830283,1.38807857815901,3.2809007269653083
0.19017660181035706,1.3118684754766963,1.38807857815901,3.25925808989233
0.20508689751442347,1.3388783554322088,1.38807857815901,3.2370672113043266
0.2205598458865679,1.3654318375500094,1.38807857815901,3.2143561951634574
0.23659544692679033,1.391552535437802,1.38807857815901,3.191153167112233
0.25319370063509067,1.4172620742992088,1.38807857815901,3.167486203014969
0.2703546070114691,1.4425803186698365,1.38807857815901,3.1433832606806686
0.28807816605592546,1.4675255676047825,1.38807857815901,3.1188721149651744
0.30636437776845976,1.4921147228363734,1.38807857815901,3.093980296415889
0.3252132421490721,1.5163634343470345,1.38807857815901,3.0687350335886787
0.3446247591977624,1.5402862269625617,1.38807857815901,3.0431631991339665
0.3645989289145307,1.563896610909423,1.38807857815901,3.017291259717799
0.3851357512993768,1.5872071787544262,1.38807857815901,2.9911452298140655
0.4062352263523011,1.6102296907251594,1.38807857815901,2.964750629376199
0.42789735407330326,1.632975150071667,1.38807857815901,2.938132445370865
0.45012213446238347,1.655453869856227,1.38807857815901,2.911315097132249
0.47290956751954166,1.6776755323352435,1.38807857815901,2.8843224054739465
0.49625965324477783,1.6996492419147755,1.38807857815901,2.857177565475871
0.5201723916380919,1.7213835725109972,1.38807857815901,2.8299031228463276
0.5446477826994839,1.7428866100225853,1.38807857815901,2.802520953744203
0.569685826428954,1.7641659905187228,1.38807857815901,2.775052247933206
0.5952865228265021,1.7852289346601302,1.38807857815901,2.7475174951291508
0.6214498718921282,1.806082278798216,1.38807857815901,2.719936474392251
0.6481758736258322,1.8267325031365143,1.38807857815901,2.6923282464093643
0.6754645280276143,1.8471857572871127,1.38807857815901,2.664711148505775
0.7033158350974742,1.867447883511087,1.38807857815901,2.6371027922224815
0.7317297948354122,1.8875244378947833,1.38807857815901,2.6095200632928512
0.7607064072414282,1.90742070968201,1.38807857815901,2.581979123851802
0.7902456723155219,1.9271417389549825,1.38807857815901,2.5544954167112723
0.8203475900576939,1.9466923328334464,1.38807857815901,2.527083671537446
0.8510121604679438,1.9660770803412115,1.38807857815901,2.499757912767997
0.8822393835462716,1.9853003660718846,1.38807857815901,2.4725314691112055
0.9140292592926775,2.0043663827704203,1.38807857815901,2.445416984473266
0.9463817877071613,2.023279142933962,1.38807857815901,2.4184264301651477
0.9792969687897232,2.0420424895239453,1.38807857815901,2.3915711182459782
1.0127748025403627,2.0606601058714253,1.38807857815901,2.3648617158660032
1.0468152889590805,2.0791355248487626,1.38807857815901,2.3383082604785335
1.0814184280458763,2.097472137373118,1.38807857815901,2.3119201757969754
1.11658421980075,2.1156732003003906,1.38807857815901,2.285706288379847
1.1523126642237018,2.1337418437622433,1.38807857815901,2.2596748447336212
1.1886037613147313,2.1516810779935764,1.38807857815901,2.233833528830187
1.225457511073839,2.169493799693099,1.38807857815901,2.2081894799426642
1.2628739135010247,2.187182797955501,1.38807857815901,2.182749310710169
1.3008529685962884,2.204750759810029,1.38807857815901,2.1575191253488626
1.33939467635963,2.2222002753969634,1.38807857815901,2.132504537933204
1.3784990367910497,2.2395338428105593,1.38807857815901,2.107710690677713
1.4181660498905473,2.2567538726343908,1.38807857815901,2.083142272155733
1.4583957156581229,2.273862692192676,1.38807857815901,2.0588035353975997
1.4991880340937758,2.2908625495390624,1.38807857815901,2.0346983158163283
1.5405430051975073,2.3077556172024414,1.38807857815901,2.0108300489143063
1.5824606289693168,2.3245439957076743,1.38807857815901,1.9872017877296528
1.6249409054092043,2.3412297168875655,1.38807857815901,1.963816219985707
1.6679838345171698,2.3578147470010378,1.38807857815901,1.9406756849117193
1.711589416293213,2.3743009896712137,1.38807857815901,1.91778218970707
1.7557576507373345,2.3906902886559673,1.38807857815901,1.8951374256253406
1.8004885378495339,2.406984430462508,1.38807857815901,1.8727427836583086
1.8457820776298113,2.423185146816595,1.38807857815901,1.8505993698033447
1.8916382700781667,2.439294116996166,1.38807857815901,1.8287080199009205
1.9380571151946,2.455312970038381,1.38807857815901,1.8070693140318432
1.9850386129791113,2.471243286828384,1.38807857815901,1.7856835904665291
2.0325827634317006,2.4870866020774565,1.38807857815901,1.7645509591610786
2.0806895665523677,2.5028444061976436,1.38807857815901,1.743671314797156
2.129359022341113,2.5185181470794107,1.38807857815901,1.7230443493646874
2.1785911307979355,2.534109231778401,1.38807857815901,1.7026695642882106
2.2283858919228368,2.549619028116924,1.38807857815901,1.6825462820993493
2.278743305715816,2.5650488662053865,1.38807857815901,1.6626736576593268
2.3296633721768734,2.5804000398885094,1.38807857815901,1.6430506889367247
2.3811460913060083,2.595673808120846,1.38807857815901,1.623676227346832
2.4331914631032214,2.6108713962757704,1.38807857815901,1.6045489876599075
2.4857994875685128,2.625993997391845,1.38807857815901,1.585667557486539
2.538970164701882,2.641042773360188,1.38807857815901,1.5670304063490172
2.5927034945033287,2.65601885605623,1.38807857815901,1.5486358943482532
2.6469994769728538,2.670923348419011,1.38807857815901,1.530482280436288
2.701858112110457,2.6857573254809672,1.38807857815901,1.5125677303048657
2.757279399916138,2.7005218353509575,1.38807857815901,1.4948903239008562
2.813263340389897,2.7152179001531014,1.38807857815901,1.4774480625795898
2.8698099335317337,2.729846516923842,1.38807857815901,1.460238875907329
2.926919179341649,2.744408658469482,1.38807857815901,1.443260628124227
2.984591077819642,2.758905274186301,1.38807857815901,1.4265111242791801
3.042825628965713,2.773337290845245,1.38807857815901,1.4099881160479875
3.101622832779861,2.787705613343031,1.38807857815901,1.393689307246196
3.1609826892620876,2.802011125421417,1.38807857815901,1.3776123590479161
3.2209051984123924,2.816254690356274,1.38807857815901,1.3617548949218024
3.2813903602307755,2.8304371516179936,1.38807857815901,1.3461145052952106
3.3424381747172363,2.8445593335046775,1.38807857815901,1.330688751957404
3.4040486418717752,2.858622041749478,1.38807857815901,1.3154751722124565
3.466221761694392,2.8726260641033545,1.38807857815901,1.300471282792297
3.5289575341850865,2.8865721708944725,1.38807857815901,1.285674583540096
3.592255959343859,2.90046111556536,1.38807857815901,1.271082560873955
3.65611703717071,2.9142936351889137,1.38807857815901,1.256692691040587
3.720540767665639,2.928070450964251,1.38807857815901,1.2425024431684197
3.785527150828645,2.941792268693373,1.38807857815901,1.2285092821292722
3.85107618665973,2.955459779239532,1.38807857815901,1.2147106712174651
3.9171878751588927,2.9690736589681648,1.38807857815901,1.2011040746549648
3.9838622163261332,2.9826345701711863,1.38807857815901,1.1876869599308488
4.051099210161451,2.9961431614754144,1.38807857815901,1.174456799983114
4.118898856664848,3.009600068235842,1.38807857815901,1.161411075230554
4.187261155836322,3.023005912914441,1.38807857815901,1.1485472754621595
4.256186107675876,3.0363613054451415,1.38807857815901,1.135862901591198
4.325673712183505,3.049666843585605,1.38807857815901,1.1233554672808799
4.3957239693592145,3.0629231132563617,1.38807857815901,1.1110225004482168
4.466336879203,3.076130688867876,1.38807857815901,1.0988615446524421
4.537512441714865,3.0892901336360503,1.38807857815901,1.0868701603740725
4.609250656894807,3.1024019998866694,1.38807857815901,1.075045926190466
4.681551524742827,3.11546682934926,1.38807857815901,1.063386439853452
4.754415045258925,3.1284851534408005,1.38807857815901,1.0518893192743997
4.827841218443101,3.1414574935397193,1.38807857815901,1.0405522034218218
4.901830044295356,3.154384361250581,1.38807857815901,1.0293727531364187
4.976381522815688,3.1672662586598404,1.38807857815901,1.0183486518682152
5.051495654004099,3.1801036785830403,1.38807857815901,1.0074776063402495
5.127172437860587,3.192897104803787,1.38807857815901,0.9967573471430612
5.203411874385154,3.2056470123048553,1.38807857815901,0.9861856292640185
5.280213963577797,3.2183538674917176,1.38807857815901,0.9757602325553502
5.35757870543852,3.23101812840881,1.38807857815901,0.965478962144539
5.435506099967319,3.243640244948826,1.38807857815901,0.955339648790581
5.513996147164199,3.2562206590552973,1.38807857815901,0.9453401491894188
5.593048847029154,3.2687598049187363,1.38807857815901,0.9354783462317151
5.672664199562189,3.281258109166584,1.38807857815901,0.925752149215956
5.7528422047633,3.2937159910471996,1.38807857815901,0.9161594940197348
5.8335828626324915,3.3061338626081236,1.38807857815901,0.9066983432319156
5.914886173169758,3.318512128868822,1.38807857815901,0.8973666862482408
5.996752136375103,3.3308511879881353,1.38807857815901,0.8881625393328084
6.079180752248528,3.3431514314266106,1.38807857815901,0.8790839456477239
6.162172020790029,3.355413244103921,1.38807857815901,0.8701289752531061
6.24572594199961,3.3676370045515482,1.38807857815901,0.8612957250795095
6.329842515877267,3.3798230850609,1.38807857815901,0.85258231887472
6.4145217424230045,3.391971851827033,1.38807857815901,0.8439869071267674
6.499763621636817,3.4040836650881316,1.38807857815901,0.8355076669649035
6.58556815351871,3.4161588792609074,1.38807857815901,0.8271428020401962
6.671935338068679,3.4281978430720508,1.38807857815901,0.8188905423872983
6.7588651752867275,3.4402008996858866,1.38807857815901,0.8107491442688604
6.846357665172852,3.452168386828359,1.38807857815901,0.8027168900039807
6.934412807727058,3.4641006369074754,1.38807857815901,0.7947920877819954
7.023030602949338,3.4759979771303366,1.38807857815901,0.7869730714628511
7.112211050839699,3.487860729616869,1.38807857815901,0.7792582003652131
7.2019541513981356,3.499689211510367,1.38807857815901,0.7716458590434161
7.29225990462465,3.51148373508496,1.38807857815901,0.7641344570542747
7.383128310519245,3.5232446078501107,1.38807857815901,0.7567224287147352
7.474559369081915,3.534972132652233,1.38807857815901,0.7494082328512727
7.566553080312667,3.5466666077735396,1.38807857815901,0.7421903525418899
7.659109444211493,3.558328327028201,1.38807857815901,0.735067294851528
7.7522284607784,3.569957579855912,1.38807857815901,0.7280375905616339
7.845910130013382,3.5815546514129473,1.38807857815901,0.721099793894601
7.940154451916445,3.5931198226607832,1.38807857815901,0.7142524822337396
8.034961426487584,3.604653370452379,1.38807857815901,0.707494255839403
8.130331053726803,3.616155567616177,1.38807857815901,0.7008237375618442
8.226263333634098,3.6276266830379047,1.38807857815901,0.6942395725513544
8.32275826620947,3.639066981740246,1.38807857815901,0.6877404279661816
8.419815851452922,3.6504767249604493,1.38807857815901,0.681324992678713
8.517436089364452,3.661856170225935,1.38807857815901,0.6749919769803535
8.61561897994406,3.673205571427973,1.38807857815901,0.66874011228552
8.714364523191742,3.68452517889348,1.38807857815901,0.66256815083513
8.813672719107508,3.695815239455001,1.38807857815901,0.656474865399941
8.913543567691347,3.7070759965189284,1.38807857815901,0.6504590489840766
9.01397706894327,3.7183076901320207,1.38807857815901,0.6445195145290376
9.114973222863265,3.729510557046255,1.38807857815901,0.6386550946184925
9.216532029451342,3.740684830782082,1.38807857815901,0.6328646411841009
9.318653488707493,3.7518307416901258,1.38807857815901,0.6271470252126214
9.421337600631727,3.7629485170113663,1.38807857815901,0.6215011364545209
9.524584365224033,3.774038380935863,1.38807857815901,0.615925883134296
9.628393782484423,3.785100554660054,1.38807857815901,0.610420191662694
9.732765852412886,3.796135256442676,1.38807857815901,0.6049830063510092
9.837700575009432,3.8071427016593478,1.38807857815901,0.5996132891276087
9.943197950274051,3.818123102855846,1.38807857815901,0.5943100192568391
10.049257978206752,3.8290766698001293,1.38807857815901,0.5890721930604383
10.155880658807527,3.8400036095331274,1.38807857815901,0.5838988236415799
10.263065992076385,3.850904126418341,1.38807857815901,0.5787889406116493
10.370813978013315,3.861778422190288,1.38807857815901,0.5737415898198569
10.479124616618325,3.8726266960018276,1.38807857815901,0.5687558330857672
10.587997907891415,3.883449144470382,1.38807857815901,0.563830747934827
10.697433851832582,3.894245961723107,1.38807857815901,0.5589654273369584
10.807432448441828,3.9050173394410272,1.38807857815901,0.554158979448275
10.91799369771915,3.915763466902163,1.38807857815901,0.5494105273559767
11.029117599664552,3.9264845310236973,1.38807857815901,0.5447192088264642
11.14080415427803,3.937180716403169,1.38807857815901,0.5400841760567135
11.253053361559587,3.9478522053587723,1.38807857815901,0.5355045954289412
11.365865221509221,3.9584991779687355,1.38807857815901,0.5309796472685843
11.479239734126935,3.969121812109841,1.38807857815901,0.5265085256056169
11.593176899412725,3.979720283495086,1.38807857815901,0.5220904379392173
11.707676717366596,3.990294765710529,1.38807857815901,0.5177246050057942
11.82273918798854,4.0008454302513154,1.38807857815901,0.5134102605503805
11.938364311278567,4.011372446556938,1.38807857815901,0.5091466511013916
12.054552087236669,4.021875982045716,1.38807857815901,0.5049330357487498
12.171302515862852,4.032356202148551,1.38807857815901,0.5007686859253653
12.288615597157108,4.042813270341947,1.38807857815901,0.496652885191967
12.406491331119444,4.053247348180326,1.38807857815901,0.4925849290252678
12.52492971774986,4.0636585953276745,1.38807857815901,0.48856412460945126
12.64393075704835,4.074047169588494,1.38807857815901,0.48458979063096064
12.763494449014923,4.084413226938129,1.38807857815901,0.48066125707656954
12.88362079364957,4.094756921552444,1.38807857815901,0.47677786503471314
13.004309790952298,4.105078405836885,1.38807857815901,0.4729389665000534
13.125561440923102,4.1153778304549435,1.38807857815901,0.46914392418125406
13.247375743561985,4.125655344356032,1.38807857815901,0.465392111311935
13.369752698868945,4.135911094802781,1.38807857815901,0.4616829114647789
13.492692306843985,4.146145227397788,1.38807857815901,0.4580157183687578
13.616194567487101,4.156357886109814,1.38807857815901,0.4543899357294475
13.740259480798297,4.166549213299454,1.38807857815901,0.45080497705239725
13.864887046777568,4.176719349744291,1.38807857815901,0.44726026546951986
13.990077265424919,4.186868434663535,1.38807857815901,0.4437552335684678
14.115830136740346,4.196996605742189,1.38807857815901,0.4402893232249589
14.242145660723851,4.2071039991547154,1.38807857815901,0.43686198543801535
14.369023837375437,4.217190749588243,1.38807857815901,0.4334726801680791
14.496464666695099,4.227256990265313,1.38807857815901,0.4301208761779663
14.62446814868284,4.237302852966184,1.38807857815901,0.4268060508766212
14.753034283338657,4.2473284680506955,1.38807857815901,0.42352769016563463
14.882163070662555,4.257333964479709,1.38807857815901,0.42028528828848377
15.011854510654528,4.2673194698361305,1.38807857815901,0.4170783476824589
15.14210860331458,4.27728511034553,1.38807857815901,0.41390637883323533
15.27292534864271,4.287231010896369,1.38807857815901,0.410768900132053
15.40430474663892,4.297157295059831,1.38807857815901,0.40766543773546315
15.536246797303205,4.307064085109284,1.38807857815901,0.404595525427605
15.66875150063557,4.316951502039368,1.38807857815901,0.40155870448497155
15.801818856636011,4.326819665584726,1.38807857815901,0.39855452354362725
15.935448865304533,4.336668694238383,1.38807857815901,0.3955825384688369
16.069641526641128,4.346498705269772,1.38807857815901,0.3926423122270695
16.204396840645803,4.356309814742442,1.38807857815901,0.38973341476033607
16.339714807318558,4.366102137531416,1.38807857815901,0.38685542286282537
16.475595426659392,4.375875787340246,1.38807857815901,0.38400792005979856
16.612038698668304,4.385630876717739,1.38807857815901,0.38119049648870557
16.749044623345288,4.395367517074392,1.38807857815901,0.37840274878248514
16.886613200690352,4.405085818698514,1.38807857815901,0.3756442799550121
17.024744430703503,4.414785890772057,1.38807857815901,0.3729146992886556
17.163438313384724,4.424467841386167,1.38807857815901,0.37021362222391185
17.30269484873402,4.4341317775564475,1.38807857815901,0.3675406702510728
17.442514036751398,4.443777805237954,1.38807857815901,0.36489547080390045
17.582895877436858,4.453406029339915,1.38807857815901,0.3622776571552667
17.72384037079039,4.463016553740192,1.38807857815901,0.359686868314727
17.865347516812,4.472609481299487,1.38807857815901,0.3571227489279911
18.007417315501687,4.482184913875294,1.38807857815901,0.35458494917826
18.15004976685946,4.491742952335606,1.38807857815901,0.35207312468939217
18.293244870885307,4.501283696572385,1.38807857815901,0.3495869364308702
18.43700262757923,4.510807245514787,1.38807857815901,0.34712605062452967
18.581323036941228,4.5203136971421705,1.38807857815901,0.3446901386530247
18.726206098971307,4.52980314849687,1.38807857815901,0.3422788769699925
18.87165181366947,4.539275695696748,1.38807857815901,0.3398919470118898
19.0176601810357,4.548731433947538,1.38807857815901,0.3375290351114693
19.164231201070013,4.558170457554972,1.38807857815901,0.335189832412864
19.311364873772405,4.567592859936698,1.38807857815901,0.3328740347882522
19.45906119914288,4.576998733634004,1.38807857815901,0.33058134275607315
19.607320177181425,4.586388170323327,1.38807857815901,0.32831146140076295
19.75614180788805,4.595761260827591,1.38807857815901,0.32606410029398336
19.90552609126275,4.60511809512733,1.38807857815901,0.3238389734173168
20.05547302730554,4.614458762371646,1.38807857815901,0.32163579908639706
20.205982616016396,4.623783350888963,1.38807857815901,0.3194542998764515
20.357054857395333,4.633091948197623,1.38807857815901,0.31729420254922586
20.508689751442347,4.642384641016293,1.38807857815901,0.31515523798126743
20.660887298157444,4.651661515274205,1.38807857815901,0.31303714109353936
20.813647497540614,4.660922656121223,1.38807857815901,0.31093965078234187
20.96697034959186,4.670168147937755,1.38807857815901,0.3088625098515143
